#time[ps]  Vp(Anode)[V]  I(Anode)[mA]   Vp(Cathode)[V]  I(Cathode)[mA]   
1.000000e+00	9.859315	-1.971863e+02	10.000000	1.971863e+02	1.000000	
2.000000e+00	19.627739	-3.925548e+02	20.000000	3.925563e+02	1.000000	
3.000000e+00	29.277883	-5.855577e+02	30.000000	5.855545e+02	1.000000	
4.000000e+00	38.803616	-7.760723e+02	40.000000	7.760689e+02	1.000000	
5.000000e+00	48.205843	-9.641169e+02	50.000000	9.641135e+02	7.414139	
7.000000e+00	66.807700	-1.336154e+03	70.000000	1.336278e+03	1.628461	
1.025692e+01	96.182438	-1.923649e+03	102.569219	1.923738e+03	1.571115	
1.425692e+01	130.728220	-2.614564e+03	142.569219	2.614599e+03	2.000620	
1.825692e+01	163.604112	-3.272082e+03	182.569219	3.272071e+03	1.814844	
2.225692e+01	195.071772	-3.901435e+03	222.569219	3.901426e+03	1.851590	
2.625692e+01	225.242043	-4.504841e+03	262.569219	4.504832e+03	1.901764	
3.025692e+01	254.149939	-5.082999e+03	302.569219	5.082990e+03	1.817328	
3.425692e+01	281.796229	-5.635925e+03	342.569219	5.635916e+03	1.684863	
3.825692e+01	308.173429	-6.163469e+03	382.569219	6.163461e+03	1.673203	
4.025692e+01	320.885319	-6.417706e+03	402.569219	6.417705e+03	3.099813	
4.380987e+01	344.590902	-6.891818e+03	438.098664	6.891907e+03	0.958472	
4.721526e+01	364.929989	-7.298600e+03	472.152630	7.298575e+03	1.301551	
5.121526e+01	388.040463	-7.760809e+03	512.152630	7.760828e+03	1.671556	
5.521526e+01	409.310175	-8.186203e+03	552.152630	8.186191e+03	2.872757	
5.921526e+01	429.221792	-8.584436e+03	592.152630	8.584427e+03	2.304561	
6.121526e+01	438.721148	-8.774423e+03	612.152630	8.774424e+03	4.269192	
6.221526e+01	443.784627	-8.875693e+03	622.152630	8.875719e+03	3.684441	
6.421526e+01	454.731072	-9.094621e+03	642.152630	9.094700e+03	2.859000	
6.821526e+01	476.077666	-9.521553e+03	682.152630	9.521624e+03	1.864123	
7.221526e+01	493.551800	-9.871036e+03	722.152630	9.871010e+03	2.309282	
7.621526e+01	509.130281	-1.018261e+04	762.152630	1.018259e+04	3.259612	
8.021526e+01	523.514855	-1.047030e+04	802.152630	1.047029e+04	4.347675	
8.421526e+01	536.972720	-1.073945e+04	842.152630	1.073945e+04	5.071651	
8.621526e+01	543.385623	-1.086771e+04	862.152630	1.086771e+04	10.193859	
9.021526e+01	559.949294	-1.119899e+04	902.152630	1.119905e+04	1.679296	
9.221526e+01	566.244959	-1.132490e+04	922.152630	1.132488e+04	4.622176	
9.621526e+01	581.904565	-1.163809e+04	962.152630	1.163815e+04	1.792032	
1.002153e+02	593.556857	-1.187114e+04	1002.152630	1.187111e+04	2.537365	
1.042153e+02	603.475862	-1.206952e+04	1042.152630	1.206950e+04	3.572179	
1.082153e+02	612.455192	-1.224910e+04	1082.152630	1.224910e+04	4.828498	
1.122153e+02	620.784005	-1.241568e+04	1122.152630	1.241568e+04	5.846891	
1.162153e+02	628.578922	-1.257158e+04	1162.152630	1.257157e+04	6.285203	
1.202153e+02	635.896935	-1.271794e+04	1202.152630	1.271794e+04	6.458790	
1.242153e+02	642.773843	-1.285548e+04	1242.152630	1.285547e+04	6.576616	
1.282153e+02	649.237362	-1.298475e+04	1282.152630	1.298474e+04	6.685987	
1.322153e+02	655.311630	-1.310623e+04	1322.152630	1.310623e+04	6.793967	
1.362153e+02	661.018791	-1.322038e+04	1362.152630	1.322037e+04	6.900434	
1.402153e+02	666.379581	-1.332759e+04	1402.152630	1.332759e+04	7.003914	
1.442153e+02	671.413595	-1.342827e+04	1442.152630	1.342827e+04	7.101671	
1.482153e+02	676.139434	-1.352279e+04	1482.152630	1.352279e+04	7.188304	
1.522153e+02	680.574838	-1.361150e+04	1522.152630	1.361149e+04	7.253798	
1.562153e+02	684.736812	-1.369474e+04	1562.152630	1.369473e+04	7.282150	
1.602153e+02	688.641760	-1.377284e+04	1602.152630	1.377283e+04	7.253001	
1.642153e+02	692.305642	-1.384611e+04	1642.152630	1.384611e+04	7.148811	
1.682153e+02	695.744139	-1.391488e+04	1682.152630	1.391488e+04	6.965397	
1.722153e+02	698.972838	-1.397946e+04	1722.152630	1.397946e+04	6.716682	
1.762153e+02	702.007432	-1.404015e+04	1762.152630	1.404015e+04	6.427902	
1.802153e+02	704.863938	-1.409728e+04	1802.152630	1.409728e+04	6.123974	
1.842153e+02	707.558932	-1.415118e+04	1842.152630	1.415118e+04	5.822432	
1.882153e+02	710.109794	-1.420220e+04	1882.152630	1.420219e+04	5.532582	
1.922153e+02	712.534989	-1.425070e+04	1922.152630	1.425070e+04	5.257643	
1.962153e+02	714.854359	-1.429709e+04	1962.152630	1.429709e+04	4.997217	
2.002153e+02	717.089461	-1.434179e+04	2002.152630	1.434179e+04	4.749135	
2.042153e+02	719.263945	-1.438528e+04	2042.152630	1.438528e+04	4.510639	
2.082153e+02	721.404003	-1.442808e+04	2082.152630	1.442808e+04	4.279108	
2.122153e+02	723.538904	-1.447078e+04	2122.152630	1.447078e+04	4.052473	
2.162153e+02	725.701649	-1.451403e+04	2162.152630	1.451403e+04	3.829438	
2.202153e+02	727.929794	-1.455860e+04	2202.152630	1.455860e+04	3.609539	
2.242153e+02	730.266486	-1.460533e+04	2242.152630	1.460533e+04	3.393076	
2.282153e+02	732.761793	-1.465524e+04	2282.152630	1.465524e+04	3.180970	
2.322153e+02	735.474408	-1.470949e+04	2322.152630	1.470949e+04	2.974562	
2.362153e+02	738.473853	-1.476948e+04	2362.152630	1.476948e+04	2.775413	
2.402153e+02	741.843321	-1.483687e+04	2402.152630	1.483687e+04	2.585145	
2.442153e+02	745.683329	-1.491367e+04	2442.152630	1.491367e+04	2.405336	
2.482153e+02	750.116398	-1.500233e+04	2482.152630	1.500233e+04	2.237481	
2.522153e+02	755.292987	-1.510586e+04	2522.152630	1.510586e+04	2.083012	
2.562153e+02	761.398876	-1.522798e+04	2562.152630	1.522798e+04	1.943385	
2.602153e+02	768.659486	-1.537319e+04	2602.152630	1.537320e+04	1.041901	
2.642153e+02	777.366433	-1.554733e+04	2642.152630	1.554734e+04	1.042929	
2.682153e+02	787.872646	-1.575745e+04	2682.152630	1.575747e+04	1.591666	
2.722153e+02	800.607032	-1.601214e+04	2722.152630	1.601216e+04	1.537660	
2.762153e+02	816.084379	-1.632169e+04	2762.152630	1.632171e+04	1.513907	
2.802153e+02	834.907778	-1.669816e+04	2802.152630	1.669818e+04	1.536404	
2.842153e+02	857.759785	-1.715520e+04	2842.152630	1.715522e+04	1.567814	
2.882153e+02	885.379617	-1.770759e+04	2882.152630	1.770762e+04	1.499035	
2.922153e+02	918.530093	-1.837060e+04	2922.152630	1.837064e+04	1.281391	
2.962153e+02	957.973991	-1.915948e+04	2962.152630	1.915952e+04	1.058390	
2.996906e+02	997.933844	-1.995868e+04	2996.906252	1.995872e+04	1.011122	
3.026167e+02	1010.665263	-2.021331e+04	3000.000000	2.021313e+04	1.007409	
3.051551e+02	1023.512558	-2.047025e+04	3000.000000	2.047027e+04	1.003065	
3.074025e+02	1038.770782	-2.077542e+04	3000.000000	2.077546e+04	1.000994	
3.096521e+02	1058.162631	-2.116325e+04	3000.000000	2.116330e+04	0.902861	
3.114636e+02	1077.700174	-2.155400e+04	3000.000000	2.155403e+04	0.956502	
3.131963e+02	1099.655786	-2.199312e+04	3000.000000	2.199315e+04	1.129059	
3.142019e+02	1113.489613	-2.226979e+04	3000.000000	2.226984e+04	0.950065	
3.151573e+02	1128.257171	-2.256514e+04	3000.000000	2.256517e+04	1.299637	
3.157149e+02	1136.945293	-2.273891e+04	3000.000000	2.273897e+04	0.921476	
3.162286e+02	1145.844022	-2.291688e+04	3000.000000	2.291689e+04	1.230272	
3.166389e+02	1152.818924	-2.305638e+04	3000.000000	2.305644e+04	0.957333	
3.170317e+02	1160.066530	-2.320133e+04	3000.000000	2.320135e+04	1.333838	
3.173508e+02	1165.748215	-2.331496e+04	3000.000000	2.331505e+04	0.949125	
3.176537e+02	1171.646804	-2.343294e+04	3000.000000	2.343295e+04	1.331041	
3.179286e+02	1176.775323	-2.353551e+04	3000.000000	2.353560e+04	0.960329	
3.181925e+02	1182.138995	-2.364278e+04	3000.000000	2.364280e+04	1.373870	
3.184390e+02	1186.906713	-2.373813e+04	3000.000000	2.373824e+04	0.959551	
3.186756e+02	1191.905619	-2.383811e+04	3000.000000	2.383814e+04	1.380550	
3.189292e+02	1196.981648	-2.393963e+04	3000.000000	2.393975e+04	0.907184	
3.191594e+02	1202.127675	-2.404255e+04	3000.000000	2.404256e+04	1.180937	
3.194311e+02	1208.014119	-2.416028e+04	3000.000000	2.416036e+04	1.002105	
3.197035e+02	1214.253339	-2.428507e+04	3000.000000	2.428510e+04	1.693579	
3.199215e+02	1218.923906	-2.437848e+04	3000.000000	2.437862e+04	0.922072	
3.201225e+02	1223.746124	-2.447492e+04	3000.000000	2.447494e+04	1.369083	
3.203457e+02	1228.775371	-2.457551e+04	3000.000000	2.457563e+04	0.923000	
3.205517e+02	1233.913735	-2.467827e+04	3000.000000	2.467829e+04	1.238687	
3.208068e+02	1240.000036	-2.480000e+04	3000.000000	2.480010e+04	0.938157	
3.210461e+02	1246.212684	-2.492425e+04	3000.000000	2.492427e+04	1.220173	
3.213382e+02	1253.502627	-2.507005e+04	3000.000000	2.507015e+04	0.915841	
3.216056e+02	1260.815772	-2.521632e+04	3000.000000	2.521632e+04	1.114782	
3.219038e+02	1268.820931	-2.537642e+04	3000.000000	2.537648e+04	1.084512	
3.222272e+02	1277.672721	-2.555345e+04	3000.000000	2.555352e+04	1.377188	
3.225043e+02	1285.053980	-2.570108e+04	3000.000000	2.570122e+04	0.946701	
3.227666e+02	1292.724761	-2.585450e+04	3000.000000	2.585452e+04	1.271444	
3.230435e+02	1300.493010	-2.600986e+04	3000.000000	2.600999e+04	0.930659	
3.233011e+02	1308.391186	-2.616782e+04	3000.000000	2.616783e+04	1.190143	
3.236078e+02	1317.468341	-2.634937e+04	3000.000000	2.634947e+04	0.934741	
3.238945e+02	1326.633862	-2.653268e+04	3000.000000	2.653268e+04	1.159390	
3.242269e+02	1336.953416	-2.673907e+04	3000.000000	2.673916e+04	0.954608	
3.245441e+02	1347.464846	-2.694930e+04	3000.000000	2.694931e+04	1.232918	
3.248627e+02	1357.599021	-2.715198e+04	3000.000000	2.715210e+04	0.924625	
3.251572e+02	1367.773004	-2.735546e+04	3000.000000	2.735546e+04	1.151897	
3.254965e+02	1379.131626	-2.758263e+04	3000.000000	2.758273e+04	0.961195	
3.258226e+02	1390.705731	-2.781411e+04	3000.000000	2.781413e+04	1.271249	
3.261416e+02	1401.483711	-2.802967e+04	3000.000000	2.802981e+04	0.904075	
3.264299e+02	1412.158703	-2.824317e+04	3000.000000	2.824316e+04	1.110257	
3.267501e+02	1423.687800	-2.847376e+04	3000.000000	2.847383e+04	1.072120	
3.270933e+02	1436.193493	-2.872387e+04	3000.000000	2.872395e+04	1.461556	
3.273685e+02	1445.752984	-2.891506e+04	3000.000000	2.891525e+04	0.933343	
3.276253e+02	1455.543587	-2.911087e+04	3000.000000	2.911089e+04	1.280360	
3.279017e+02	1465.506676	-2.931013e+04	3000.000000	2.931029e+04	0.935003	
3.281601e+02	1475.586765	-2.951174e+04	3000.000000	2.951174e+04	1.221040	
3.284756e+02	1487.271855	-2.974544e+04	3000.000000	2.974558e+04	0.915616	
3.287646e+02	1498.849783	-2.997700e+04	3000.000000	2.997698e+04	1.111991	
3.290858e+02	1511.317677	-3.022635e+04	3000.000000	3.022643e+04	1.110258	
3.294425e+02	1525.102664	-3.050205e+04	3000.000000	3.050215e+04	1.250071	
3.298353e+02	1539.880352	-3.079761e+04	3000.000000	3.079778e+04	0.946759	
3.302071e+02	1554.973346	-3.109947e+04	3000.000000	3.109949e+04	1.136192	
3.306296e+02	1571.617603	-3.143235e+04	3000.000000	3.143245e+04	1.036705	
3.310675e+02	1589.258249	-3.178516e+04	3000.000000	3.178523e+04	2.923966	
3.313454e+02	1599.635785	-3.199272e+04	3000.000000	3.199294e+04	0.954947	
3.316107e+02	1610.446922	-3.220894e+04	3000.000000	3.220898e+04	1.569419	
3.318695e+02	1620.091596	-3.240183e+04	3000.000000	3.240207e+04	0.948359	
3.321149e+02	1630.118990	-3.260238e+04	3000.000000	3.260242e+04	1.389695	
3.324100e+02	1641.267544	-3.282535e+04	3000.000000	3.282557e+04	0.944506	
3.326887e+02	1652.726236	-3.305452e+04	3000.000000	3.305455e+04	1.298443	
3.330506e+02	1666.594054	-3.333188e+04	3000.000000	3.333206e+04	0.941776	
3.333915e+02	1680.670103	-3.361340e+04	3000.000000	3.361342e+04	1.242032	
3.338149e+02	1697.080309	-3.394161e+04	3000.000000	3.394176e+04	0.987706	
3.342330e+02	1714.092239	-3.428184e+04	3000.000000	3.428188e+04	1.433966	
3.347096e+02	1731.865437	-3.463731e+04	3000.000000	3.463752e+04	0.911548	
3.351440e+02	1749.680812	-3.499362e+04	3000.000000	3.499362e+04	1.196986	
3.356640e+02	1769.766203	-3.539532e+04	3000.000000	3.539544e+04	1.117072	
3.362449e+02	1792.140084	-3.584280e+04	3000.000000	3.584291e+04	1.820708	
3.368710e+02	1814.044219	-3.628088e+04	3000.000000	3.628116e+04	0.936974	
3.374577e+02	1836.875868	-3.673752e+04	3000.000000	3.673756e+04	1.322384	
3.382335e+02	1864.726774	-3.729454e+04	3000.000000	3.729471e+04	1.091130	
3.390800e+02	1895.689311	-3.791379e+04	3000.000000	3.791388e+04	2.020535	
3.400198e+02	1926.250871	-3.852502e+04	3000.000000	3.852529e+04	0.935333	
3.408987e+02	1957.909461	-3.915819e+04	3000.000000	3.915822e+04	1.366830	
3.419295e+02	1991.479146	-3.982958e+04	3000.000000	3.982974e+04	0.940959	
3.428995e+02	2024.629695	-4.049259e+04	3000.000000	4.049258e+04	1.133681	
3.439991e+02	2059.047403	-4.118095e+04	3000.000000	4.118098e+04	1.141272	
3.452541e+02	2094.291564	-4.188583e+04	3000.000000	4.188585e+04	1.167448	
3.467192e+02	2128.368379	-4.256737e+04	3000.000000	4.256735e+04	1.015531	
3.482070e+02	2157.382735	-4.314765e+04	3000.000000	4.314756e+04	1.002069	
3.496980e+02	2181.622188	-4.363244e+04	3000.000000	4.363236e+04	1.039150	
3.512473e+02	2202.860398	-4.405721e+04	3000.000000	4.405716e+04	1.080638	
3.529215e+02	2222.553054	-4.445106e+04	3000.000000	4.445104e+04	0.972887	
3.545503e+02	2240.152626	-4.480305e+04	3000.000000	4.480302e+04	0.999198	
3.561779e+02	2256.044542	-4.512089e+04	3000.000000	4.512086e+04	1.129986	
3.576677e+02	2268.845013	-4.537690e+04	3000.000000	4.537690e+04	0.937080	
3.590638e+02	2280.539878	-4.561080e+04	3000.000000	4.561078e+04	1.075202	
3.605649e+02	2291.881317	-4.583763e+04	3000.000000	4.583762e+04	1.043747	
3.621317e+02	2302.903770	-4.605808e+04	3000.000000	4.605807e+04	1.416968	
3.632642e+02	2309.938153	-4.619876e+04	3000.000000	4.619879e+04	0.934879	
3.643229e+02	2316.760034	-4.633520e+04	3000.000000	4.633519e+04	1.239868	
3.654662e+02	2323.382181	-4.646764e+04	3000.000000	4.646766e+04	0.950987	
3.665534e+02	2329.799771	-4.659600e+04	3000.000000	4.659599e+04	1.218380	
3.678781e+02	2336.824571	-4.673649e+04	3000.000000	4.673650e+04	0.907416	
3.690801e+02	2343.394920	-4.686790e+04	3000.000000	4.686789e+04	1.042799	
3.703336e+02	2349.793514	-4.699587e+04	3000.000000	4.699587e+04	1.458081	
3.713896e+02	2354.545949	-4.709092e+04	3000.000000	4.709094e+04	0.947751	
3.723905e+02	2359.265424	-4.718531e+04	3000.000000	4.718531e+04	1.323171	
3.735212e+02	2364.046038	-4.728092e+04	3000.000000	4.728094e+04	0.943565	
3.745881e+02	2368.750129	-4.737500e+04	3000.000000	4.737500e+04	1.228658	
3.758990e+02	2373.988039	-4.747976e+04	3000.000000	4.747977e+04	0.966381	
3.771658e+02	2379.138548	-4.758277e+04	3000.000000	4.758277e+04	1.271171	
3.785801e+02	2384.307399	-4.768615e+04	3000.000000	4.768616e+04	0.954223	
3.799296e+02	2389.368538	-4.778737e+04	3000.000000	4.778737e+04	1.245761	
3.816108e+02	2395.023308	-4.790047e+04	3000.000000	4.790048e+04	0.925852	
3.831674e+02	2400.415684	-4.800831e+04	3000.000000	4.800831e+04	1.140376	
3.849424e+02	2406.022518	-4.812045e+04	3000.000000	4.812045e+04	1.098119	
3.868917e+02	2411.863964	-4.823728e+04	3000.000000	4.823728e+04	1.482169	
3.887209e+02	2416.757294	-4.833515e+04	3000.000000	4.833516e+04	0.954822	
3.904675e+02	2421.649610	-4.843299e+04	3000.000000	4.843299e+04	1.265222	
3.926774e+02	2427.201625	-4.854403e+04	3000.000000	4.854404e+04	0.954370	
3.947864e+02	2432.607172	-4.865214e+04	3000.000000	4.865214e+04	1.244701	
3.974115e+02	2438.586215	-4.877172e+04	3000.000000	4.877173e+04	0.928840	
3.998498e+02	2444.242501	-4.888485e+04	3000.000000	4.888485e+04	1.128855	
4.026023e+02	2450.019202	-4.900038e+04	3000.000000	4.900039e+04	1.109271	
4.056555e+02	2455.985823	-4.911972e+04	3000.000000	4.911972e+04	1.355207	
4.088449e+02	2461.561736	-4.923123e+04	3000.000000	4.923124e+04	0.916377	
4.117676e+02	2466.817023	-4.933634e+04	3000.000000	4.933634e+04	0.992461	
4.146683e+02	2471.725417	-4.943451e+04	3000.000000	4.943451e+04	2.100141	
4.170699e+02	2475.246746	-4.950493e+04	3000.000000	4.950494e+04	0.957585	
4.193697e+02	2478.689439	-4.957379e+04	3000.000000	4.957379e+04	1.384970	
4.219017e+02	2481.999959	-4.964000e+04	3000.000000	4.964000e+04	0.922078	
4.242364e+02	2485.182962	-4.970366e+04	3000.000000	4.970366e+04	1.217689	
4.270794e+02	2488.627749	-4.977255e+04	3000.000000	4.977256e+04	0.995276	
4.299090e+02	2491.998533	-4.983997e+04	3000.000000	4.983997e+04	1.454998	
4.325816e+02	2494.765723	-4.989531e+04	3000.000000	4.989532e+04	0.961809	
4.351522e+02	2497.478480	-4.994957e+04	3000.000000	4.994957e+04	1.291325	
4.380710e+02	2500.179781	-5.000360e+04	3000.000000	5.000360e+04	0.954404	
4.408567e+02	2502.764826	-5.005530e+04	3000.000000	5.005530e+04	1.191824	
4.441767e+02	2505.471160	-5.010942e+04	3000.000000	5.010942e+04	0.986910	
4.474533e+02	2508.033418	-5.016067e+04	3000.000000	5.016067e+04	1.324556	
4.510067e+02	2510.427378	-5.020855e+04	3000.000000	5.020855e+04	0.959780	
4.544171e+02	2512.631890	-5.025264e+04	3000.000000	5.025264e+04	1.216862	
4.584171e+02	2514.816020	-5.029632e+04	3000.000000	5.029632e+04	0.962516	
4.622672e+02	2516.746293	-5.033493e+04	3000.000000	5.033492e+04	1.156562	
4.662672e+02	2518.440788	-5.036882e+04	3000.000000	5.036881e+04	1.574517	
4.702672e+02	2519.866191	-5.039732e+04	3000.000000	5.039732e+04	1.549195	
4.742672e+02	2521.023396	-5.042047e+04	3000.000000	5.042047e+04	1.797838	
4.782672e+02	2521.926488	-5.043853e+04	3000.000000	5.043853e+04	1.980173	
4.822672e+02	2522.592650	-5.045185e+04	3000.000000	5.045185e+04	1.741538	
4.862672e+02	2523.037228	-5.046074e+04	3000.000000	5.046074e+04	1.573888	
4.902672e+02	2523.272709	-5.046545e+04	3000.000000	5.046545e+04	1.519255	
4.942672e+02	2523.310359	-5.046621e+04	3000.000000	5.046621e+04	1.533667	
4.982672e+02	2523.162959	-5.046326e+04	3000.000000	5.046326e+04	1.611433	
5.022672e+02	2522.846794	-5.045694e+04	3000.000000	5.045693e+04	1.788671	
5.062672e+02	2522.381313	-5.044763e+04	3000.000000	5.044763e+04	1.962161	
5.102672e+02	2521.786678	-5.043573e+04	3000.000000	5.043573e+04	1.759695	
5.142672e+02	2521.081436	-5.042163e+04	3000.000000	5.042163e+04	1.583803	
5.182672e+02	2520.282192	-5.040564e+04	3000.000000	5.040564e+04	1.521347	
5.222672e+02	2519.405368	-5.038811e+04	3000.000000	5.038811e+04	1.532102	
5.262672e+02	2518.469943	-5.036940e+04	3000.000000	5.036940e+04	1.610984	
5.302672e+02	2517.499418	-5.034999e+04	3000.000000	5.034999e+04	1.793914	
5.342672e+02	2516.521387	-5.033043e+04	3000.000000	5.033043e+04	1.963868	
5.382672e+02	2515.564923	-5.031130e+04	3000.000000	5.031130e+04	1.760359	
5.422672e+02	2514.657959	-5.029316e+04	3000.000000	5.029316e+04	1.592049	
5.462672e+02	2513.826374	-5.027653e+04	3000.000000	5.027653e+04	1.535711	
5.502672e+02	2513.094769	-5.026190e+04	3000.000000	5.026190e+04	1.554112	
5.542672e+02	2512.487784	-5.024976e+04	3000.000000	5.024976e+04	1.646517	
5.582672e+02	2512.030263	-5.024061e+04	3000.000000	5.024061e+04	1.833621	
5.622672e+02	2511.745027	-5.023490e+04	3000.000000	5.023490e+04	1.912925	
5.662672e+02	2511.649105	-5.023298e+04	3000.000000	5.023298e+04	1.721072	
5.702672e+02	2511.750773	-5.023502e+04	3000.000000	5.023502e+04	1.596352	
5.742672e+02	2512.048900	-5.024098e+04	3000.000000	5.024098e+04	1.568109	
5.782672e+02	2512.534467	-5.025069e+04	3000.000000	5.025069e+04	1.614457	
5.822672e+02	2513.193063	-5.026386e+04	3000.000000	5.026386e+04	1.744905	
5.862672e+02	2514.006727	-5.028013e+04	3000.000000	5.028014e+04	1.943654	
5.902672e+02	2514.954301	-5.029909e+04	3000.000000	5.029909e+04	1.922597	
5.942672e+02	2516.011122	-5.032022e+04	3000.000000	5.032022e+04	1.746506	
5.982672e+02	2517.149508	-5.034299e+04	3000.000000	5.034299e+04	1.660481	
6.022672e+02	2496.329928	-4.992660e+04	2977.327931	4.992645e+04	1.657298	
6.062672e+02	2459.438233	-4.918876e+04	2937.327931	4.918866e+04	1.740164	
6.102672e+02	2423.755458	-4.847511e+04	2897.327931	4.847512e+04	1.918144	
6.142672e+02	2389.117760	-4.778236e+04	2857.327931	4.778236e+04	2.082562	
6.182672e+02	2355.358126	-4.710716e+04	2817.327931	4.710717e+04	2.039592	
6.222672e+02	2322.327642	-4.644655e+04	2777.327931	4.644656e+04	1.939128	
6.262672e+02	2289.895623	-4.579791e+04	2737.327931	4.579792e+04	1.907292	
6.302672e+02	2257.946819	-4.515894e+04	2697.327931	4.515894e+04	1.949510	
6.342672e+02	2226.379072	-4.452758e+04	2657.327931	4.452758e+04	2.057037	
6.382672e+02	2195.101566	-4.390203e+04	2617.327931	4.390203e+04	2.219149	
6.422672e+02	2164.033365	-4.328067e+04	2577.327931	4.328067e+04	2.397281	
6.462672e+02	2133.102016	-4.266204e+04	2537.327931	4.266204e+04	2.502694	
6.502672e+02	2102.242209	-4.204484e+04	2497.327931	4.204484e+04	2.502666	
